t,C(t)
0.0,1.000402703017019
1.0,0.9516357839706001
2.0,0.9052839783155769
3.0,0.8612370839768093
4.0,0.8193307053213823
5.0,0.7794266663899033
6.0,0.7413999487995969
7.0,0.7052865094687495
8.0,0.6710249153596383
9.0,0.6384779420703159
10.0,0.607517915587981
11.0,0.5780913329173859
12.0,0.5500929713603162
13.0,0.5234996605636124
14.0,0.49821141550445885
15.0,0.47407948278308715
16.0,0.45108974888661835
17.0,0.42925662632004397
18.0,0.4085378809866902
19.0,0.38880542680125774
20.0,0.3699724463677934
21.0,0.3520300289962302
22.0,0.33498112295391147
23.0,0.31878937911504734
24.0,0.30328240845177734
25.0,0.2885205798584106
26.0,0.27444228554881855
27.0,0.26105018724870777
28.0,0.2483366533828153
29.0,0.23626118526190784
30.0,0.22476812664579043
31.0,0.21379839379375032
32.0,0.20335307251957346
33.0,0.19338080540686525
34.0,0.18385557343273473
35.0,0.17480410271819458
36.0,0.16628126219825728
37.0,0.15822993413552985
38.0,0.15055277271342227
39.0,0.14323801575235035
40.0,0.136186507663845
41.0,0.12949471798975518
42.0,0.1230765892580503
43.0,0.11702001314008309
44.0,0.11120772360862871
45.0,0.10569536992713914
46.0,0.10042581023692744
47.0,0.09547017963897664
48.0,0.09077334579197896
49.0,0.08629947257423759
50.0,0.08207393266238268
51.0,0.0780359377221978
52.0,0.07420061715790473
53.0,0.0705659648338486
54.0,0.06707110641387995
55.0,0.06369900309559824
56.0,0.060493739776174366
57.0,0.05742102901450128
58.0,0.05446186191735209
59.0,0.05160442040492316
60.0,0.04894681891767494
61.0,0.04639270091637705
62.0,0.04393135317117536
63.0,0.041576454404443464
64.0,0.03940171633039837
65.0,0.0373588139116458
66.0,0.03539957260722912
67.0,0.033485147981307216
68.0,0.031738190350540624
69.0,0.030148528492089773
70.0,0.028705238958750736
71.0,0.02732952662833231
72.0,0.026019932047785826
73.0,0.024807529981912924
74.0,0.023543916467906323
75.0,0.022300379345873877
76.0,0.021047106663628096
77.0,0.019911529129674713
78.0,0.018888406426640195
79.0,0.01790715532917566
80.0,0.016947720631269547
81.0,0.016061689280936976
82.0,0.015279474406278972
83.0,0.014556487274866471
84.0,0.013910320340059224
85.0,0.013364764734211648
86.0,0.012769873276196133
87.0,0.012210098599407
88.0,0.01166408417241161
89.0,0.011139015242945189
90.0,0.01060612882689743
91.0,0.01014526326880546
92.0,0.009709725699743212
93.0,0.009384988774883635
94.0,0.009035586787601035
95.0,0.008702345458807164
96.0,0.008346243890915114
97.0,0.007984528982032925
98.0,0.007608331167982306
99.0,0.007217799534982003
100.0,0.006904668545062113
101.0,0.00655782626910176
102.0,0.006180845309562024
103.0,0.005905215589360693
104.0,0.00554708657650106
105.0,0.005252511572630644
106.0,0.004950503820462513
107.0,0.004647650162289297
108.0,0.004293666608760959
109.0,0.003961510607636729
110.0,0.0036494885679011872
111.0,0.0033538770712400567
112.0,0.0030609679711429095
113.0,0.0027417321841004517
114.0,0.0024917283014852143
115.0,0.0022850747022300747
116.0,0.0021252940796910127
117.0,0.0019743685990247146
118.0,0.0018269845892108978
119.0,0.0017219203798349383
120.0,0.0016478050696192273
121.0,0.0016167122928537625
122.0,0.0015777642275174811
123.0,0.001536128727496175
124.0,0.0015504280596182294
125.0,0.001555064672824989
126.0,0.0015287561201022238
127.0,0.0014438833141995578
128.0,0.0013847551669179325
129.0,0.001349263574545722
130.0,0.0013607613109082655
131.0,0.0013690907652075814
132.0,0.0013596361978125294
133.0,0.0012565965308192365
134.0,0.0011401372286032694
135.0,0.0010077796837993974
136.0,0.0009259884846452612
137.0,0.0008511157775731548
138.0,0.0006720029788246664
139.0,0.0005255790022917857
140.0,0.00047296135752082207
141.0,0.00047079348890840676
142.0,0.0003758696610120804
143.0,0.00022846635447678623
144.0,0.00010772079448057613
145.0,7.384000423953163e-05
146.0,2.831575468653487e-05
147.0,5.567502235204868e-06
148.0,-1.8921450615913376e-06
149.0,-8.999055727296878e-05
150.0,-0.0002447813814445008
151.0,-0.00038898511956450777
152.0,-0.00045903126396785234
153.0,-0.00041981992203001623
154.0,-0.00042987204864138625
155.0,-0.0005549819271378333
156.0,-0.0005503152510550236
157.0,-0.0005550512775833328
158.0,-0.0005356165245889422
159.0,-0.00047859643427164726
160.0,-0.00046001722803203223
161.0,-0.00048343683706080246
162.0,-0.00039865048305967057
163.0,-0.0002585855093682977
164.0,-9.772789862563021e-05
165.0,6.338658968534292e-05
166.0,0.00023546846551692
167.0,0.0002884039759563869
168.0,0.0003222767009328422
169.0,0.00041197756054469904
170.0,0.0005382389103093025
171.0,0.0007003278351738833
172.0,0.0007640878130850383
173.0,0.0007671686002981976
174.0,0.000763736103714764
175.0,0.0007933827914609863
176.0,0.00083669540597433
177.0,0.0009559323433910919
178.0,0.0010564916223163136
179.0,0.0011730988755880064
180.0,0.0012818459822184832
181.0,0.0013538776119071919
182.0,0.001372530651457925
183.0,0.0014138692335279055
184.0,0.00153220352825324
185.0,0.001590731364637611
186.0,0.0016197609255139854
187.0,0.0016244877868738094
188.0,0.0016397669435017082
189.0,0.0016915390524681667
190.0,0.0016971512583617062
191.0,0.00172857273027176
192.0,0.0017506872507934452
193.0,0.0017762765706999517
194.0,0.0017830816508388528
195.0,0.0017637529863420392
196.0,0.0016736942920821895
197.0,0.0015058689066437794
198.0,0.0014089466860514712
199.0,0.0012424435316294505
200.0,0.0010283890765305343
201.0,0.0008450346979359472
202.0,0.0006648733242368769
203.0,0.00040066436667003034
204.0,0.00015660946253861498
205.0,-7.608879334559311e-05
206.0,-0.00030350517356494494
207.0,-0.0004816589767932888
208.0,-0.0006327595184690699
209.0,-0.0009002817578887227
210.0,-0.001090190668668826
211.0,-0.0013344771342665889
212.0,-0.001489291973244021
213.0,-0.0016171710973442585
214.0,-0.0016988187147491246
215.0,-0.0017924671822730847
216.0,-0.0018473769340439914
217.0,-0.0018775672442915203
218.0,-0.0019129532338156001
219.0,-0.001985540251693128
220.0,-0.0020771532005542186
221.0,-0.0020992537644457503
222.0,-0.0021320239757290412
223.0,-0.002069899377609493
224.0,-0.002070867427505232
225.0,-0.0021660419068147414
226.0,-0.0023137939112147115
227.0,-0.002416305605980606
228.0,-0.002444875809483041
229.0,-0.002508088185959697
230.0,-0.0025754448083912325
231.0,-0.0025905658810229716
232.0,-0.002645819680745626
233.0,-0.0027369418880382524
234.0,-0.00280458786442655
235.0,-0.0028263333688105675
236.0,-0.0027614969130931324
237.0,-0.002695712040189773
238.0,-0.0026116361723903473
239.0,-0.002597610734940765
240.0,-0.0025977510221539724
241.0,-0.0025705963282983864
242.0,-0.0026004761974861464
243.0,-0.002660991598752638
244.0,-0.002654839909051578
245.0,-0.0026652735794513304
246.0,-0.0027152284764278773
247.0,-0.002815565013963639
248.0,-0.0028081944105724246
249.0,-0.0028354819154619132
250.0,-0.0028405645716926948
251.0,-0.002831101988631739
252.0,-0.0027842069768896196
253.0,-0.002734314863691015
254.0,-0.0027246156325439553
255.0,-0.002806625491498078
256.0,-0.002886400368662382
257.0,-0.0029844382003159186
258.0,-0.0030769966465021724
259.0,-0.003163222884799725
260.0,-0.003257776121307272
261.0,-0.0033462387921797524
262.0,-0.00337141108914385
263.0,-0.003365004976415326
264.0,-0.003333316201165396
265.0,-0.0032324188886932665
266.0,-0.0031576942217706287
267.0,-0.0030353316009760173
268.0,-0.0028952295541003676
269.0,-0.002772638933974875
270.0,-0.00268355937860842
271.0,-0.002614411998279774
272.0,-0.0024902951148694365
273.0,-0.002356312278801558
274.0,-0.002190523612477128
275.0,-0.0020355638565957243
276.0,-0.0019779736480995173
277.0,-0.001906780337001398
278.0,-0.0017839069855002069
279.0,-0.001675091309245351
280.0,-0.0014653654468454287
281.0,-0.0013235242220728835
282.0,-0.0011796513457939365
283.0,-0.0011236049520220372
284.0,-0.001184762416346754
285.0,-0.001185206570000419
286.0,-0.0011426092426166017
287.0,-0.0011336249216487191
288.0,-0.0011374356577449386
289.0,-0.001217164437004442
290.0,-0.001292864122897513
291.0,-0.001447065444831221
292.0,-0.0015123948493822972
293.0,-0.001605291694183713
294.0,-0.00165240676027621
295.0,-0.0016494763727754103
296.0,-0.0016078062482779384
297.0,-0.0015359899408875011
298.0,-0.001498605356560563
299.0,-0.0015372520541863974
300.0,-0.001618239449977069
301.0,-0.0016088700794781564
302.0,-0.0016395720496237185
303.0,-0.0016707140236656532
304.0,-0.001744118811625112
305.0,-0.0018225767957113048
306.0,-0.0018618780669087992
307.0,-0.0018772184597819585
308.0,-0.0019426701967341126
309.0,-0.002058349130330416
310.0,-0.002122707276163817
311.0,-0.0021681306880178062
312.0,-0.002261339682649509
313.0,-0.002384248163736144
314.0,-0.0024822599404539978
315.0,-0.002480698267204521
316.0,-0.0024513942849192587
317.0,-0.0024386842334909566
318.0,-0.002357655028222852
319.0,-0.0023095582415697206
320.0,-0.0023031108845069635
321.0,-0.002237326894382535
322.0,-0.0022744771713806887
323.0,-0.0023370235357006073
324.0,-0.0023447878146807604
325.0,-0.0023738478327248818
326.0,-0.0023949507875884275
327.0,-0.002391296230071221
328.0,-0.002339217784726936
329.0,-0.002347594470821017
330.0,-0.002461147695999047
331.0,-0.002542633284787041
332.0,-0.002693325840057303
333.0,-0.0027755956230373284
334.0,-0.002786781149067297
335.0,-0.002826038419449782
336.0,-0.00283351349838377
337.0,-0.002769107579302222
338.0,-0.0026723301253711055
339.0,-0.002661847974626075
340.0,-0.0026079778439308645
341.0,-0.002585207560639828
342.0,-0.0025930336244600932
343.0,-0.0026776635615501625
344.0,-0.002808739945677498
345.0,-0.002930528615173073
346.0,-0.003013908818026253
347.0,-0.003074925215693146
348.0,-0.0031780015667421165
349.0,-0.0032259971033715305
350.0,-0.0033087576810240603
351.0,-0.0033710201983591006
352.0,-0.0034231191607582913
353.0,-0.003537853178202619
354.0,-0.003742185584236964
355.0,-0.0039428118371473385
356.0,-0.004096094096823308
357.0,-0.004240565056353539
358.0,-0.004346785216580639
359.0,-0.0044793190097611214
360.0,-0.004627688553591693
361.0,-0.004754123292116997
362.0,-0.0048195314813869634
363.0,-0.004852237710888971
364.0,-0.004848717369392375
365.0,-0.004780108073591618
366.0,-0.0047274435616001895
367.0,-0.004668684382841688
368.0,-0.004619070215824776
369.0,-0.004611533008230002
370.0,-0.0045912899631577655
371.0,-0.0045541904500675506
372.0,-0.0045687882411845696
373.0,-0.004533030552767747
374.0,-0.0045170601312303806
375.0,-0.0045047217549313
376.0,-0.0044900281462965505
377.0,-0.004457235261355516
378.0,-0.004495944498086951
379.0,-0.004582816745829939
380.0,-0.004695246714576417
381.0,-0.0048214839573700406
382.0,-0.004997299106068988
383.0,-0.005161320610194694
384.0,-0.005375133574497787
385.0,-0.005544148122645222
386.0,-0.005645420974324936
387.0,-0.00570112135482849
388.0,-0.005817020586980093
389.0,-0.005902210749239064
390.0,-0.005928741036336125
391.0,-0.0059990063450773515
392.0,-0.005946954309150309
393.0,-0.0059055384572291245
394.0,-0.005846606906715148
395.0,-0.005746474000388553
396.0,-0.005660204434087423
397.0,-0.005571657433885617
398.0,-0.005582730983877712
399.0,-0.005509509526856814
400.0,-0.005341752722039703
401.0,-0.005151206778197316
402.0,-0.004938902562904455
403.0,-0.004763226671623512
404.0,-0.004562518561702124
405.0,-0.004409715157954591
406.0,-0.004207067764937595
407.0,-0.0039875581490394305
408.0,-0.0037976022726941643
409.0,-0.0036408975220698094
410.0,-0.0034650915001811383
411.0,-0.003324933983475865
412.0,-0.0032283215404854872
413.0,-0.0031718012225973257
414.0,-0.0031417311318230677
415.0,-0.0030952560080220928
416.0,-0.0029921021910929916
417.0,-0.002962145573532988
418.0,-0.003061586960877211
419.0,-0.0031579797511112
420.0,-0.003282664676545126
421.0,-0.0034077096933296867
422.0,-0.003504102163241871
423.0,-0.0036014303045197914
424.0,-0.0036702436584563707
425.0,-0.0037099068084620206
426.0,-0.003673717351985319
427.0,-0.0035993982957183363
428.0,-0.003507498200866129
429.0,-0.0034336978025698637
430.0,-0.003381523469313363
431.0,-0.0032959880599221225
432.0,-0.0032089383125707776
433.0,-0.0031782393831915143
434.0,-0.0031673143090909205
435.0,-0.003134099240758034
436.0,-0.003121400461802112
437.0,-0.003051549783434326
438.0,-0.0029635254230708295
439.0,-0.0028719809811465764
440.0,-0.002810807321512989
441.0,-0.0028273865007010348
442.0,-0.002772526798863421
443.0,-0.0027210992675772857
444.0,-0.0026115978319625793
445.0,-0.0025480595686593437
446.0,-0.0024294432788811615
447.0,-0.0023516144217237142
448.0,-0.002216326060132693
449.0,-0.002091803720421822
450.0,-0.0019822040443964405
451.0,-0.001889519906242019
452.0,-0.0017132927295304633
453.0,-0.0015277910730499493
454.0,-0.0012811411826318191
455.0,-0.0010384450774240266
456.0,-0.0008096335987327851
457.0,-0.0006530094687598373
458.0,-0.0005043831292553952
459.0,-0.0003421967432106986
460.0,-0.00018463983293144488
461.0,-1.1000220950341966e-05
462.0,7.43542010403783e-05
463.0,0.00014082315030707675
464.0,0.00017478707851635532
465.0,0.0002472295060715212
466.0,0.0002617610884309354
467.0,0.0002145684666700469
468.0,0.00015231778234363016
469.0,0.0001373440989070541
470.0,0.00015403136345930028
471.0,0.00020334690429800166
472.0,0.00024197447429495525
473.0,0.00031887756631882177
474.0,0.0003732242581085212
475.0,0.0004413393963866392
476.0,0.0004536415150523962
477.0,0.0004207766605109095
478.0,0.00042024621071934593
479.0,0.000420571929123181
480.0,0.00036869397036532413
481.0,0.00022688828393789066
482.0,-1.058174237821048e-05
483.0,-0.00025709575923819124
484.0,-0.0004643895753644261
485.0,-0.0006024553199774157
486.0,-0.0007771180057537453
487.0,-0.000944900442414372
488.0,-0.0011481204327251917
489.0,-0.0012922241714783884
490.0,-0.0013513106839638926
491.0,-0.001433267056851222
492.0,-0.001512111978593495
493.0,-0.0015750406625606869
494.0,-0.0017157939292879322
495.0,-0.0018727244659466553
496.0,-0.002012927155143901
497.0,-0.0021660565764431462
498.0,-0.002247227379447739
499.0,-0.002323264399316559
500.0,-0.0024448219230821587
501.0,-0.00259514281073078
502.0,-0.0026372097931249634
503.0,-0.0025893242655408606
504.0,-0.002444510372075758
505.0,-0.0022590058242162076
506.0,-0.002068845140771167
507.0,-0.0019715289200421806
508.0,-0.0018649190428853485
509.0,-0.0017545672300339466
510.0,-0.0016197727655004573
511.0,-0.001530570504316862
512.0,-0.0014298669815021752
513.0,-0.001382970688729892
514.0,-0.0013536533406015858
515.0,-0.0013264309656376607
516.0,-0.0013441098735090936
517.0,-0.001420367072605374
518.0,-0.001537923955055789
519.0,-0.0016797479689779728
520.0,-0.001821840713604639
521.0,-0.0019828338848082027
522.0,-0.0020498947829143558
523.0,-0.002117293574925134
524.0,-0.00214467111499365
525.0,-0.002114112968171291
526.0,-0.0020685070300421617
527.0,-0.0019764994006335065
528.0,-0.0019646881570175136
529.0,-0.0019166671335536004
530.0,-0.001878908546632795
531.0,-0.0018033691365029096
532.0,-0.0017804387478022486
533.0,-0.00179902610090194
534.0,-0.0018232418665010696
535.0,-0.0018330562918981253
536.0,-0.0018218041111877589
537.0,-0.0018302576101608282
538.0,-0.0018789591348686908
539.0,-0.0019071449515692626
540.0,-0.0019296118002387432
541.0,-0.0019507147722050012
542.0,-0.0019437753773674398
543.0,-0.0018944014361938954
544.0,-0.0018268052845263336
545.0,-0.0017584388352979482
546.0,-0.001716706941726355
547.0,-0.0016975342763091907
548.0,-0.0016217248824885204
549.0,-0.0015331462887440812
550.0,-0.0015100435072676831
551.0,-0.001532067814843105
552.0,-0.0015016972454090672
553.0,-0.0014197564461360182
554.0,-0.0014261219959502234
555.0,-0.00138521755088445
556.0,-0.001349150261355893
557.0,-0.0012655827836408292
558.0,-0.0012239987549460569
559.0,-0.001141496835398437
560.0,-0.0010155186397398028
561.0,-0.0009863476125506073
562.0,-0.0009343323867811047
563.0,-0.0007941189838501356
564.0,-0.0006184612115769003
565.0,-0.00040262094928042945
566.0,-0.00019210868830040015
567.0,-7.27519665107232e-05
568.0,-1.6429552171812883e-05
569.0,4.807028100517162e-05
570.0,9.952336816963794e-05
571.0,0.00022872282275456445
572.0,0.000309367301850022
573.0,0.00028413993212303727
574.0,0.00022738520882945563
575.0,0.00022076787669351834
576.0,0.0002137980828937209
577.0,0.0002812443172467217
578.0,0.0003029123823443398
579.0,0.0003789578972124856
580.0,0.00042240103680937275
581.0,0.0004329621446168074
582.0,0.0004701270936104434
583.0,0.0005091491756838294
584.0,0.0005448816947533566
585.0,0.0005752717814225763
586.0,0.0005555476774391795
587.0,0.00048826430658409733
588.0,0.0004488965705092444
589.0,0.0003967957880494988
590.0,0.00031349952917637895
591.0,0.0002715731611640428
592.0,0.00021003350549686324
593.0,0.00012916767110843756
594.0,0.00017027130559440538
595.0,0.0001478321701658471
596.0,1.87829105241738e-05
597.0,-0.00015573250368190774
598.0,-0.00031747182232801894
599.0,-0.00046278674185755875
600.0,-0.0005638442926066453
601.0,-0.0005958088385104645
602.0,-0.0006681711823821841
603.0,-0.0007539698532702132
604.0,-0.0008874240520561774
605.0,-0.0009426952620969586
606.0,-0.000989979766725909
607.0,-0.00105846728092805
608.0,-0.0011472002452153443
609.0,-0.0012110638560927773
610.0,-0.0011877918100553029
611.0,-0.0011065628211681807
612.0,-0.0010657542852630672
613.0,-0.0010092303061266944
614.0,-0.0010049284883438204
615.0,-0.001052996563634211
616.0,-0.0011482356823890615
617.0,-0.00120960624103258
618.0,-0.0013271071345731793
619.0,-0.0014179755901410657
620.0,-0.0015594957792535219
621.0,-0.0017185247597654814
622.0,-0.0017890120055841228
623.0,-0.0019099792068866686
624.0,-0.0019072146580105056
625.0,-0.001867292424350486
626.0,-0.0018161359835529962
627.0,-0.0017472602164556356
628.0,-0.00170753183810749
629.0,-0.0017216576129896167
630.0,-0.0017590958260747913
631.0,-0.001813139771177144
632.0,-0.0019056360891494754
633.0,-0.0019607264094871047
634.0,-0.0020125341066021996
635.0,-0.0019983755037384834
636.0,-0.001985899680661982
637.0,-0.0020317666173651325
638.0,-0.002107046653759179
639.0,-0.002142601009383625
640.0,-0.0021326449293788555
641.0,-0.0021208402448201495
642.0,-0.0021654196442636563
643.0,-0.0021702770519951998
644.0,-0.0021896339231434188
645.0,-0.002168104128523689
646.0,-0.0021216435482178816
647.0,-0.0020108953698785782
648.0,-0.0018941466512276566
649.0,-0.0017141510662927295
650.0,-0.001529673847365877
651.0,-0.0013370284201681536
652.0,-0.001114195277238402
653.0,-0.000968273319452318
654.0,-0.000844454525746004
655.0,-0.0007480284926598655
656.0,-0.0007093279589527315
657.0,-0.00066859208258791
658.0,-0.0006063732000244431
659.0,-0.0005369774869259004
660.0,-0.0004777784642646373
661.0,-0.00044233793697064805
662.0,-0.00043600639629940677
663.0,-0.000384717413705055
664.0,-0.00040302406647136724
665.0,-0.0004267024218819767
666.0,-0.0004761978625207316
667.0,-0.0005769707009266828
668.0,-0.000655251330779632
669.0,-0.0008075751238151227
670.0,-0.000926938343746481
671.0,-0.001015007909387783
672.0,-0.0010967391692188481
673.0,-0.0012112322017596951
674.0,-0.0012761934658865783
675.0,-0.0012949611958673669
676.0,-0.0013765310559324794
677.0,-0.0014708752019434185
678.0,-0.0015318227459816935
679.0,-0.001664317077535194
680.0,-0.0017551443342742317
681.0,-0.0018217409176459268
682.0,-0.00193668369086885
683.0,-0.002048959039903075
684.0,-0.00217089633326491
685.0,-0.0023172153908567034
686.0,-0.002498064095989952
687.0,-0.0026109427348704646
688.0,-0.002676676561579702
689.0,-0.00269178022058167
